#Voltage,Current
0,33
0.347,32.73584906
0.686,32.82296651
1.33,31.66666667
1.822,30.88135593
2.277,27.70072993
2.45,23.55769231
2.599,16.78940568
2.656,12.45194562
2.706,8.990033223
2.729,6.8225
2.745,5.435643564
2.767,3.655217966
2.773,3.004333694
2.783,0
